# E(eV)    DOS      Integrated DOS
-21.979057 0.000000 0.000000
-21.868057 0.000000 0.000000
-21.757057 0.000000 0.000000
-21.646057 0.000000 0.000000
-21.535057 0.000000 0.000000
-21.424057 0.000000 0.000000
-21.313057 0.000000 0.000000
-21.202057 0.000000 0.000000
-21.091057 0.000000 0.000000
-20.980057 0.000000 0.000000
-20.869057 0.000000 0.000000
-20.758057 0.000000 0.000000
-20.648057 0.000000 0.000000
-20.537057 0.000000 0.000000
-20.426057 0.000000 0.000000
-20.315057 0.000000 0.000000
-20.204057 0.000000 0.000000
-20.093057 0.000000 0.000000
-19.982057 0.000000 0.000000
-19.871057 0.137000 0.007474
-19.760057 0.202000 0.025870
-19.649057 0.280100 0.052720
-19.538057 0.345500 0.087320
-19.427057 0.434800 0.130000
-19.316057 0.502200 0.182900
-19.205057 0.620800 0.245200
-19.094057 0.755300 0.320900
-18.984057 0.940000 0.414300
-18.873057 1.212000 0.532500
-18.762057 1.642000 0.689700
-18.651057 2.649000 0.915000
-18.540057 4.379000 1.337000
-18.429057 2.675000 1.980000
-18.318057 0.000000 2.000000
-18.207057 0.000000 2.000000
-18.096057 0.000000 2.000000
-17.985057 0.000000 2.000000
-17.874057 0.000000 2.000000
-17.763057 0.000000 2.000000
-17.652057 0.000000 2.000000
-17.541057 0.000000 2.000000
-17.430057 0.000000 2.000000
-17.319057 0.000000 2.000000
-17.209057 0.000000 2.000000
-17.098057 0.000000 2.000000
-16.987057 0.000000 2.000000
-16.876057 0.000000 2.000000
-16.765057 0.000000 2.000000
-16.654057 0.000000 2.000000
-16.543057 0.000000 2.000000
-16.432057 0.000000 2.000000
-16.321057 0.000000 2.000000
-16.210057 0.000000 2.000000
-16.099057 0.000000 2.000000
-15.988057 0.000000 2.000000
-15.877057 0.000000 2.000000
-15.766057 0.000000 2.000000
-15.655057 0.000000 2.000000
-15.545057 0.000000 2.000000
-15.434057 0.000000 2.000000
-15.323057 0.000000 2.000000
-15.212057 0.000000 2.000000
-15.101057 0.000000 2.000000
-14.990057 0.000000 2.000000
-14.879057 0.000000 2.000000
-14.768057 0.000000 2.000000
-14.657057 0.000000 2.000000
-14.546057 0.000000 2.000000
-14.435057 0.000000 2.000000
-14.324057 0.000000 2.000000
-14.213057 0.000000 2.000000
-14.102057 0.000000 2.000000
-13.991057 0.000000 2.000000
-13.881057 0.000000 2.000000
-13.770057 0.000000 2.000000
-13.659057 0.000000 2.000000
-13.548057 0.000000 2.000000
-13.437057 0.000000 2.000000
-13.326057 0.000000 2.000000
-13.215057 0.000000 2.000000
-13.104057 0.000000 2.000000
-12.993057 0.000000 2.000000
-12.882057 0.000000 2.000000
-12.771057 0.000000 2.000000
-12.660057 0.000000 2.000000
-12.549057 0.000000 2.000000
-12.438057 0.000000 2.000000
-12.327057 0.000000 2.000000
-12.217057 0.000000 2.000000
-12.106057 0.000000 2.000000
-11.995057 0.000000 2.000000
-11.884057 0.000000 2.000000
-11.773057 0.000000 2.000000
-11.662057 0.000000 2.000000
-11.551057 0.000000 2.000000
-11.440057 0.000000 2.000000
-11.329057 0.000000 2.000000
-11.218057 0.000000 2.000000
-11.107057 0.000000 2.000000
-10.996057 0.000000 2.000000
-10.885057 0.000000 2.000000
-10.774057 0.000000 2.000000
-10.663057 0.000000 2.000000
-10.553057 0.000000 2.000000
-10.442057 0.000000 2.000000
-10.331057 0.000000 2.000000
-10.220057 0.000000 2.000000
-10.109057 0.000000 2.000000
-9.998057 0.000000 2.000000
-9.887057 0.000000 2.000000
-9.776057 0.000000 2.000000
-9.665057 0.000000 2.000000
-9.554057 0.000000 2.000000
-9.443057 0.000000 2.000000
-9.332057 0.000000 2.000000
-9.221057 0.000000 2.000000
-9.110057 0.000000 2.000000
-8.999057 0.000000 2.000000
-8.889057 0.000000 2.000000
-8.778057 0.000000 2.000000
-8.667057 0.000000 2.000000
-8.556057 0.000000 2.000000
-8.445057 0.000000 2.000000
-8.334057 0.000000 2.000000
-8.223057 0.000000 2.000000
-8.112057 0.000000 2.000000
-8.001057 0.000000 2.000000
-7.890057 0.000000 2.000000
-7.779057 0.055570 2.002000
-7.668057 0.223300 2.017000
-7.557057 0.313300 2.047000
-7.446057 0.397400 2.087000
-7.335057 0.493200 2.136000
-7.225057 0.604900 2.197000
-7.114057 0.754500 2.271000
-7.003057 1.006000 2.368000
-6.892057 1.422000 2.500000
-6.781057 2.038000 2.695000
-6.670057 1.661000 2.875000
-6.559057 2.444000 3.141000
-6.448057 1.600000 3.352000
-6.337057 1.226000 3.513000
-6.226057 0.883700 3.631000
-6.115057 0.602500 3.713000
-6.004057 0.296900 3.762000
-5.893057 0.472600 3.799000
-5.782057 0.785200 3.871000
-5.671057 1.112000 3.975000
-5.561057 1.747000 4.130000
-5.450057 1.573000 4.315000
-5.339057 1.834000 4.500000
-5.228057 2.181000 4.718000
-5.117057 3.253000 4.991000
-5.006057 5.072000 5.535000
-4.895057 3.132000 5.951000
-4.784057 2.510000 6.264000
-4.673057 2.195000 6.511000
-4.562057 1.899000 6.729000
-4.451057 1.800000 6.937000
-4.340057 1.648000 7.119000
-4.229057 1.651000 7.305000
-4.118057 1.437000 7.477000
-4.007057 1.455000 7.626000
-3.896057 0.723400 7.732000
-3.786057 0.537300 7.801000
-3.675057 0.412400 7.854000
-3.564057 0.322100 7.894000
-3.453057 0.243200 7.925000
-3.342057 0.190900 7.949000
-3.231057 0.143900 7.968000
-3.120057 0.113100 7.982000
-3.009057 0.062280 7.992000
-2.898057 0.080450 7.999000
-2.787057 0.164900 8.013000
-2.676057 0.284100 8.036000
-2.565057 0.436700 8.076000
-2.454057 0.686300 8.137000
-2.343057 1.077000 8.232000
-2.232057 2.125000 8.403000
-2.122057 2.236000 8.701000
-2.011057 1.644000 8.903000
-1.900057 2.057000 9.118000
-1.789057 1.983000 9.346000
-1.678057 5.350000 9.713000
-1.567057 4.177000 10.300000
-1.456057 2.629000 10.850000
-1.345057 0.256700 11.020000
-1.234057 1.103000 11.070000
-1.123057 3.620000 11.320000
-1.012057 5.041000 11.860000
-0.901057 3.616000 12.460000
-0.790057 3.474000 12.830000
-0.679057 4.268000 13.230000
-0.568057 5.775000 13.680000
-0.458057 5.198000 14.290000
-0.347057 4.978000 15.040000
-0.236057 3.435000 15.870000
-0.125057 0.165200 16.000000
-0.014057 0.000000 16.000000
0.096943 0.000000 16.000000
0.207943 0.000000 16.000000
0.318943 0.000000 16.000000
0.429943 0.004223 16.000000
0.540943 0.215700 16.010000
0.651943 0.424300 16.050000
0.762943 1.341000 16.130000
0.873943 2.428000 16.340000
0.984943 3.123000 16.690000
1.095943 1.622000 16.880000
1.205943 2.764000 17.110000
1.316943 2.347000 17.400000
1.427943 1.947000 17.630000
1.538943 1.679000 17.830000
1.649943 0.710800 17.980000
1.760943 0.000000 18.000000
1.871943 0.000000 18.000000
1.982943 0.000000 18.000000
2.093943 0.000556 18.000000
2.204943 0.003341 18.000000
2.315943 0.007151 18.000000
2.426943 0.011990 18.000000
2.537943 0.017500 18.000000
2.648943 0.023140 18.010000
2.759943 0.025220 18.010000
2.869943 0.027790 18.010000
2.980943 0.031260 18.010000
3.091943 0.034810 18.020000
3.202943 0.038380 18.020000
3.313943 0.042040 18.030000
3.424943 0.045890 18.030000
3.535943 0.049850 18.040000
3.646943 0.053940 18.040000
3.757943 0.058560 18.050000
3.868943 0.063840 18.060000
3.979943 0.069410 18.060000
4.090943 0.075010 18.070000
4.201943 0.080650 18.080000
4.312943 0.086410 18.090000
4.423943 0.092740 18.100000
4.533943 0.100500 18.110000
4.644943 0.107700 18.120000
4.755943 0.114100 18.130000
4.866943 0.119800 18.150000
4.977943 0.125200 18.160000
5.088943 0.137700 18.170000
5.199943 0.152400 18.190000
5.310943 0.164700 18.210000
5.421943 0.178200 18.230000
5.532943 0.192600 18.250000
5.643943 0.207300 18.270000
5.754943 0.222800 18.290000
5.865943 0.240400 18.320000
5.976943 0.269300 18.350000
6.087943 0.328700 18.380000
6.197943 0.368700 18.420000
6.308943 0.400900 18.460000
6.419943 0.420500 18.510000
6.530943 0.422000 18.550000
6.641943 0.421100 18.600000
6.752943 0.442700 18.650000
6.863943 0.520100 18.700000
6.974943 0.663000 18.770000
7.085943 0.688500 18.840000
7.196943 0.665900 18.920000
7.307943 0.647400 18.990000
7.418943 0.646500 19.060000
7.529943 0.647400 19.140000
7.640943 0.622600 19.210000
7.751943 0.599000 19.270000
7.861943 0.550600 19.340000
7.972943 0.530000 19.400000
8.083943 0.522900 19.460000
8.194943 0.514500 19.520000
8.305943 0.504700 19.570000
8.416943 0.495800 19.630000
8.527943 0.491300 19.680000
8.638943 0.498000 19.740000
8.749943 0.636900 19.800000
8.860943 0.427700 19.860000
8.971943 0.546000 19.910000
9.082943 0.431600 19.970000
9.193943 0.102400 20.000000
9.304943 0.000000 20.000000
9.415943 0.000000 20.000000
9.526943 0.000000 20.000000
9.636943 0.000000 20.000000
9.747943 0.000000 20.000000
9.858943 0.000000 20.000000
9.969943 0.000000 20.000000
10.080943 0.000000 20.000000
10.191943 0.000000 20.000000
10.302943 0.000000 20.000000
10.413943 0.000000 20.000000
10.524943 0.000000 20.000000
10.635943 0.000000 20.000000
10.746943 0.000000 20.000000
10.857943 0.000000 20.000000
10.968943 0.000000 20.000000
11.079943 0.000000 20.000000
11.190943 0.000000 20.000000
11.300943 0.000000 20.000000
