# E(eV)    s        py       pz       px       dxy      dyz      dz2      dxz      dx2-y2      Total
-21.979057 0.000000 0.000000 0.000000 0.000000 0.000000 0.000000 0.000000 0.000000 0.000000 0.000000
-21.868057 0.000000 0.000000 0.000000 0.000000 0.000000 0.000000 0.000000 0.000000 0.000000 0.000000
-21.757057 0.000000 0.000000 0.000000 0.000000 0.000000 0.000000 0.000000 0.000000 0.000000 0.000000
-21.646057 0.000000 0.000000 0.000000 0.000000 0.000000 0.000000 0.000000 0.000000 0.000000 0.000000
-21.535057 0.000000 0.000000 0.000000 0.000000 0.000000 0.000000 0.000000 0.000000 0.000000 0.000000
-21.424057 0.000000 0.000000 0.000000 0.000000 0.000000 0.000000 0.000000 0.000000 0.000000 0.000000
-21.313057 0.000000 0.000000 0.000000 0.000000 0.000000 0.000000 0.000000 0.000000 0.000000 0.000000
-21.202057 0.000000 0.000000 0.000000 0.000000 0.000000 0.000000 0.000000 0.000000 0.000000 0.000000
-21.091057 0.000000 0.000000 0.000000 0.000000 0.000000 0.000000 0.000000 0.000000 0.000000 0.000000
-20.980057 0.000000 0.000000 0.000000 0.000000 0.000000 0.000000 0.000000 0.000000 0.000000 0.000000
-20.869057 0.000000 0.000000 0.000000 0.000000 0.000000 0.000000 0.000000 0.000000 0.000000 0.000000
-20.758057 0.000000 0.000000 0.000000 0.000000 0.000000 0.000000 0.000000 0.000000 0.000000 0.000000
-20.648057 0.000000 0.000000 0.000000 0.000000 0.000000 0.000000 0.000000 0.000000 0.000000 0.000000
-20.537057 0.000000 0.000000 0.000000 0.000000 0.000000 0.000000 0.000000 0.000000 0.000000 0.000000
-20.426057 0.000000 0.000000 0.000000 0.000000 0.000000 0.000000 0.000000 0.000000 0.000000 0.000000
-20.315057 0.000000 0.000000 0.000000 0.000000 0.000000 0.000000 0.000000 0.000000 0.000000 0.000000
-20.204057 0.000000 0.000000 0.000000 0.000000 0.000000 0.000000 0.000000 0.000000 0.000000 0.000000
-20.093057 0.000000 0.000000 0.000000 0.000000 0.000000 0.000000 0.000000 0.000000 0.000000 0.000000
-19.982057 0.000000 0.000000 0.000000 0.000000 0.000000 0.000000 0.000000 0.000000 0.000000 0.000000
-19.871057 0.046930 0.000007 0.000003 0.000015 0.000000 0.000000 0.000000 0.000000 0.000000 0.046955
-19.760057 0.069960 0.000018 0.000008 0.000041 0.000000 0.000000 0.000000 0.000000 0.000000 0.070027
-19.649057 0.097840 0.000030 0.000013 0.000074 0.000000 0.000000 0.000000 0.000000 0.000000 0.097957
-19.538057 0.122200 0.000050 0.000021 0.000110 0.000000 0.000000 0.000000 0.000000 0.000000 0.122381
-19.427057 0.155200 0.000065 0.000030 0.000156 0.000000 0.000000 0.000000 0.000000 0.000000 0.155452
-19.316057 0.181000 0.000079 0.000034 0.000194 0.000000 0.000000 0.000000 0.000000 0.000000 0.181307
-19.205057 0.226400 0.000109 0.000058 0.000219 0.000000 0.000000 0.000000 0.000000 0.000000 0.226786
-19.094057 0.278100 0.000123 0.000095 0.000237 0.000000 0.000000 0.000000 0.000000 0.000000 0.278554
-18.984057 0.350000 0.000135 0.000137 0.000249 0.000000 0.000000 0.000000 0.000000 0.000000 0.350521
-18.873057 0.456900 0.000154 0.000180 0.000240 0.000000 0.000000 0.000000 0.000000 0.000000 0.457474
-18.762057 0.625800 0.000163 0.000221 0.000229 0.000000 0.000000 0.000000 0.000000 0.000000 0.626412
-18.651057 1.022000 0.000168 0.000249 0.000215 0.000000 0.000000 0.000000 0.000000 0.000000 1.022632
-18.540057 1.708000 0.000118 0.000218 0.000132 0.000000 0.000000 0.000000 0.000000 0.000000 1.708469
-18.429057 1.055000 0.000017 0.000016 0.000025 0.000000 0.000000 0.000000 0.000000 0.000000 1.055059
-18.318057 0.000000 0.000000 0.000000 0.000000 0.000000 0.000000 0.000000 0.000000 0.000000 0.000000
-18.207057 0.000000 0.000000 0.000000 0.000000 0.000000 0.000000 0.000000 0.000000 0.000000 0.000000
-18.096057 0.000000 0.000000 0.000000 0.000000 0.000000 0.000000 0.000000 0.000000 0.000000 0.000000
-17.985057 0.000000 0.000000 0.000000 0.000000 0.000000 0.000000 0.000000 0.000000 0.000000 0.000000
-17.874057 0.000000 0.000000 0.000000 0.000000 0.000000 0.000000 0.000000 0.000000 0.000000 0.000000
-17.763057 0.000000 0.000000 0.000000 0.000000 0.000000 0.000000 0.000000 0.000000 0.000000 0.000000
-17.652057 0.000000 0.000000 0.000000 0.000000 0.000000 0.000000 0.000000 0.000000 0.000000 0.000000
-17.541057 0.000000 0.000000 0.000000 0.000000 0.000000 0.000000 0.000000 0.000000 0.000000 0.000000
-17.430057 0.000000 0.000000 0.000000 0.000000 0.000000 0.000000 0.000000 0.000000 0.000000 0.000000
-17.319057 0.000000 0.000000 0.000000 0.000000 0.000000 0.000000 0.000000 0.000000 0.000000 0.000000
-17.209057 0.000000 0.000000 0.000000 0.000000 0.000000 0.000000 0.000000 0.000000 0.000000 0.000000
-17.098057 0.000000 0.000000 0.000000 0.000000 0.000000 0.000000 0.000000 0.000000 0.000000 0.000000
-16.987057 0.000000 0.000000 0.000000 0.000000 0.000000 0.000000 0.000000 0.000000 0.000000 0.000000
-16.876057 0.000000 0.000000 0.000000 0.000000 0.000000 0.000000 0.000000 0.000000 0.000000 0.000000
-16.765057 0.000000 0.000000 0.000000 0.000000 0.000000 0.000000 0.000000 0.000000 0.000000 0.000000
-16.654057 0.000000 0.000000 0.000000 0.000000 0.000000 0.000000 0.000000 0.000000 0.000000 0.000000
-16.543057 0.000000 0.000000 0.000000 0.000000 0.000000 0.000000 0.000000 0.000000 0.000000 0.000000
-16.432057 0.000000 0.000000 0.000000 0.000000 0.000000 0.000000 0.000000 0.000000 0.000000 0.000000
-16.321057 0.000000 0.000000 0.000000 0.000000 0.000000 0.000000 0.000000 0.000000 0.000000 0.000000
-16.210057 0.000000 0.000000 0.000000 0.000000 0.000000 0.000000 0.000000 0.000000 0.000000 0.000000
-16.099057 0.000000 0.000000 0.000000 0.000000 0.000000 0.000000 0.000000 0.000000 0.000000 0.000000
-15.988057 0.000000 0.000000 0.000000 0.000000 0.000000 0.000000 0.000000 0.000000 0.000000 0.000000
-15.877057 0.000000 0.000000 0.000000 0.000000 0.000000 0.000000 0.000000 0.000000 0.000000 0.000000
-15.766057 0.000000 0.000000 0.000000 0.000000 0.000000 0.000000 0.000000 0.000000 0.000000 0.000000
-15.655057 0.000000 0.000000 0.000000 0.000000 0.000000 0.000000 0.000000 0.000000 0.000000 0.000000
-15.545057 0.000000 0.000000 0.000000 0.000000 0.000000 0.000000 0.000000 0.000000 0.000000 0.000000
-15.434057 0.000000 0.000000 0.000000 0.000000 0.000000 0.000000 0.000000 0.000000 0.000000 0.000000
-15.323057 0.000000 0.000000 0.000000 0.000000 0.000000 0.000000 0.000000 0.000000 0.000000 0.000000
-15.212057 0.000000 0.000000 0.000000 0.000000 0.000000 0.000000 0.000000 0.000000 0.000000 0.000000
-15.101057 0.000000 0.000000 0.000000 0.000000 0.000000 0.000000 0.000000 0.000000 0.000000 0.000000
-14.990057 0.000000 0.000000 0.000000 0.000000 0.000000 0.000000 0.000000 0.000000 0.000000 0.000000
-14.879057 0.000000 0.000000 0.000000 0.000000 0.000000 0.000000 0.000000 0.000000 0.000000 0.000000
-14.768057 0.000000 0.000000 0.000000 0.000000 0.000000 0.000000 0.000000 0.000000 0.000000 0.000000
-14.657057 0.000000 0.000000 0.000000 0.000000 0.000000 0.000000 0.000000 0.000000 0.000000 0.000000
-14.546057 0.000000 0.000000 0.000000 0.000000 0.000000 0.000000 0.000000 0.000000 0.000000 0.000000
-14.435057 0.000000 0.000000 0.000000 0.000000 0.000000 0.000000 0.000000 0.000000 0.000000 0.000000
-14.324057 0.000000 0.000000 0.000000 0.000000 0.000000 0.000000 0.000000 0.000000 0.000000 0.000000
-14.213057 0.000000 0.000000 0.000000 0.000000 0.000000 0.000000 0.000000 0.000000 0.000000 0.000000
-14.102057 0.000000 0.000000 0.000000 0.000000 0.000000 0.000000 0.000000 0.000000 0.000000 0.000000
-13.991057 0.000000 0.000000 0.000000 0.000000 0.000000 0.000000 0.000000 0.000000 0.000000 0.000000
-13.881057 0.000000 0.000000 0.000000 0.000000 0.000000 0.000000 0.000000 0.000000 0.000000 0.000000
-13.770057 0.000000 0.000000 0.000000 0.000000 0.000000 0.000000 0.000000 0.000000 0.000000 0.000000
-13.659057 0.000000 0.000000 0.000000 0.000000 0.000000 0.000000 0.000000 0.000000 0.000000 0.000000
-13.548057 0.000000 0.000000 0.000000 0.000000 0.000000 0.000000 0.000000 0.000000 0.000000 0.000000
-13.437057 0.000000 0.000000 0.000000 0.000000 0.000000 0.000000 0.000000 0.000000 0.000000 0.000000
-13.326057 0.000000 0.000000 0.000000 0.000000 0.000000 0.000000 0.000000 0.000000 0.000000 0.000000
-13.215057 0.000000 0.000000 0.000000 0.000000 0.000000 0.000000 0.000000 0.000000 0.000000 0.000000
-13.104057 0.000000 0.000000 0.000000 0.000000 0.000000 0.000000 0.000000 0.000000 0.000000 0.000000
-12.993057 0.000000 0.000000 0.000000 0.000000 0.000000 0.000000 0.000000 0.000000 0.000000 0.000000
-12.882057 0.000000 0.000000 0.000000 0.000000 0.000000 0.000000 0.000000 0.000000 0.000000 0.000000
-12.771057 0.000000 0.000000 0.000000 0.000000 0.000000 0.000000 0.000000 0.000000 0.000000 0.000000
-12.660057 0.000000 0.000000 0.000000 0.000000 0.000000 0.000000 0.000000 0.000000 0.000000 0.000000
-12.549057 0.000000 0.000000 0.000000 0.000000 0.000000 0.000000 0.000000 0.000000 0.000000 0.000000
-12.438057 0.000000 0.000000 0.000000 0.000000 0.000000 0.000000 0.000000 0.000000 0.000000 0.000000
-12.327057 0.000000 0.000000 0.000000 0.000000 0.000000 0.000000 0.000000 0.000000 0.000000 0.000000
-12.217057 0.000000 0.000000 0.000000 0.000000 0.000000 0.000000 0.000000 0.000000 0.000000 0.000000
-12.106057 0.000000 0.000000 0.000000 0.000000 0.000000 0.000000 0.000000 0.000000 0.000000 0.000000
-11.995057 0.000000 0.000000 0.000000 0.000000 0.000000 0.000000 0.000000 0.000000 0.000000 0.000000
-11.884057 0.000000 0.000000 0.000000 0.000000 0.000000 0.000000 0.000000 0.000000 0.000000 0.000000
-11.773057 0.000000 0.000000 0.000000 0.000000 0.000000 0.000000 0.000000 0.000000 0.000000 0.000000
-11.662057 0.000000 0.000000 0.000000 0.000000 0.000000 0.000000 0.000000 0.000000 0.000000 0.000000
-11.551057 0.000000 0.000000 0.000000 0.000000 0.000000 0.000000 0.000000 0.000000 0.000000 0.000000
-11.440057 0.000000 0.000000 0.000000 0.000000 0.000000 0.000000 0.000000 0.000000 0.000000 0.000000
-11.329057 0.000000 0.000000 0.000000 0.000000 0.000000 0.000000 0.000000 0.000000 0.000000 0.000000
-11.218057 0.000000 0.000000 0.000000 0.000000 0.000000 0.000000 0.000000 0.000000 0.000000 0.000000
-11.107057 0.000000 0.000000 0.000000 0.000000 0.000000 0.000000 0.000000 0.000000 0.000000 0.000000
-10.996057 0.000000 0.000000 0.000000 0.000000 0.000000 0.000000 0.000000 0.000000 0.000000 0.000000
-10.885057 0.000000 0.000000 0.000000 0.000000 0.000000 0.000000 0.000000 0.000000 0.000000 0.000000
-10.774057 0.000000 0.000000 0.000000 0.000000 0.000000 0.000000 0.000000 0.000000 0.000000 0.000000
-10.663057 0.000000 0.000000 0.000000 0.000000 0.000000 0.000000 0.000000 0.000000 0.000000 0.000000
-10.553057 0.000000 0.000000 0.000000 0.000000 0.000000 0.000000 0.000000 0.000000 0.000000 0.000000
-10.442057 0.000000 0.000000 0.000000 0.000000 0.000000 0.000000 0.000000 0.000000 0.000000 0.000000
-10.331057 0.000000 0.000000 0.000000 0.000000 0.000000 0.000000 0.000000 0.000000 0.000000 0.000000
-10.220057 0.000000 0.000000 0.000000 0.000000 0.000000 0.000000 0.000000 0.000000 0.000000 0.000000
-10.109057 0.000000 0.000000 0.000000 0.000000 0.000000 0.000000 0.000000 0.000000 0.000000 0.000000
-9.998057 0.000000 0.000000 0.000000 0.000000 0.000000 0.000000 0.000000 0.000000 0.000000 0.000000
-9.887057 0.000000 0.000000 0.000000 0.000000 0.000000 0.000000 0.000000 0.000000 0.000000 0.000000
-9.776057 0.000000 0.000000 0.000000 0.000000 0.000000 0.000000 0.000000 0.000000 0.000000 0.000000
-9.665057 0.000000 0.000000 0.000000 0.000000 0.000000 0.000000 0.000000 0.000000 0.000000 0.000000
-9.554057 0.000000 0.000000 0.000000 0.000000 0.000000 0.000000 0.000000 0.000000 0.000000 0.000000
-9.443057 0.000000 0.000000 0.000000 0.000000 0.000000 0.000000 0.000000 0.000000 0.000000 0.000000
-9.332057 0.000000 0.000000 0.000000 0.000000 0.000000 0.000000 0.000000 0.000000 0.000000 0.000000
-9.221057 0.000000 0.000000 0.000000 0.000000 0.000000 0.000000 0.000000 0.000000 0.000000 0.000000
-9.110057 0.000000 0.000000 0.000000 0.000000 0.000000 0.000000 0.000000 0.000000 0.000000 0.000000
-8.999057 0.000000 0.000000 0.000000 0.000000 0.000000 0.000000 0.000000 0.000000 0.000000 0.000000
-8.889057 0.000000 0.000000 0.000000 0.000000 0.000000 0.000000 0.000000 0.000000 0.000000 0.000000
-8.778057 0.000000 0.000000 0.000000 0.000000 0.000000 0.000000 0.000000 0.000000 0.000000 0.000000
-8.667057 0.000000 0.000000 0.000000 0.000000 0.000000 0.000000 0.000000 0.000000 0.000000 0.000000
-8.556057 0.000000 0.000000 0.000000 0.000000 0.000000 0.000000 0.000000 0.000000 0.000000 0.000000
-8.445057 0.000000 0.000000 0.000000 0.000000 0.000000 0.000000 0.000000 0.000000 0.000000 0.000000
-8.334057 0.000000 0.000000 0.000000 0.000000 0.000000 0.000000 0.000000 0.000000 0.000000 0.000000
-8.223057 0.000000 0.000000 0.000000 0.000000 0.000000 0.000000 0.000000 0.000000 0.000000 0.000000
-8.112057 0.000000 0.000000 0.000000 0.000000 0.000000 0.000000 0.000000 0.000000 0.000000 0.000000
-8.001057 0.000000 0.000000 0.000000 0.000000 0.000000 0.000000 0.000000 0.000000 0.000000 0.000000
-7.890057 0.000000 0.000000 0.000000 0.000000 0.000000 0.000000 0.000000 0.000000 0.000000 0.000000
-7.779057 0.000050 0.003508 0.003512 0.003571 0.000000 0.000000 0.000000 0.000000 0.000000 0.010641
-7.668057 0.000255 0.014270 0.014290 0.014190 0.000000 0.000000 0.000000 0.000000 0.000000 0.043006
-7.557057 0.000540 0.020040 0.020400 0.020300 0.000000 0.000000 0.000000 0.000000 0.000000 0.061280
-7.446057 0.000864 0.025520 0.026240 0.026100 0.000000 0.000000 0.000000 0.000000 0.000000 0.078724
-7.335057 0.001238 0.031960 0.033090 0.032360 0.000000 0.000000 0.000000 0.000000 0.000000 0.098648
-7.225057 0.001724 0.039510 0.041330 0.039990 0.000000 0.000000 0.000000 0.000000 0.000000 0.122554
-7.114057 0.002361 0.048500 0.052750 0.051300 0.000000 0.000000 0.000000 0.000000 0.000000 0.154911
-7.003057 0.003424 0.063420 0.074050 0.068040 0.000000 0.000000 0.000000 0.000000 0.000000 0.208934
-6.892057 0.005289 0.098210 0.104700 0.090420 0.000000 0.000000 0.000000 0.000000 0.000000 0.298619
-6.781057 0.007800 0.162600 0.141800 0.120300 0.000000 0.000000 0.000000 0.000000 0.000000 0.432500
-6.670057 0.008830 0.088450 0.132500 0.131500 0.000000 0.000000 0.000000 0.000000 0.000000 0.361280
-6.559057 0.008976 0.066610 0.292900 0.184400 0.000000 0.000000 0.000000 0.000000 0.000000 0.552886
-6.448057 0.005689 0.042540 0.185000 0.130700 0.000000 0.000000 0.000000 0.000000 0.000000 0.363929
-6.337057 0.004482 0.044510 0.106400 0.123500 0.000000 0.000000 0.000000 0.000000 0.000000 0.278892
-6.226057 0.004275 0.036700 0.051220 0.109000 0.000000 0.000000 0.000000 0.000000 0.000000 0.201195
-6.115057 0.004056 0.025120 0.025060 0.083710 0.000000 0.000000 0.000000 0.000000 0.000000 0.137946
-6.004057 0.003362 0.012830 0.010500 0.041420 0.000000 0.000000 0.000000 0.000000 0.000000 0.068112
-5.893057 0.003245 0.024740 0.025490 0.055310 0.000000 0.000000 0.000000 0.000000 0.000000 0.108785
-5.782057 0.002984 0.054650 0.042630 0.080410 0.000000 0.000000 0.000000 0.000000 0.000000 0.180674
-5.671057 0.002941 0.089940 0.059830 0.102800 0.000000 0.000000 0.000000 0.000000 0.000000 0.255511
-5.561057 0.002621 0.117500 0.124100 0.154800 0.000000 0.000000 0.000000 0.000000 0.000000 0.399021
-5.450057 0.002143 0.098590 0.103300 0.153600 0.000000 0.000000 0.000000 0.000000 0.000000 0.357633
-5.339057 0.001580 0.113600 0.106600 0.191300 0.000000 0.000000 0.000000 0.000000 0.000000 0.413080
-5.228057 0.001449 0.138800 0.137900 0.209800 0.000000 0.000000 0.000000 0.000000 0.000000 0.487949
-5.117057 0.001730 0.243100 0.259200 0.223400 0.000000 0.000000 0.000000 0.000000 0.000000 0.727430
-5.006057 0.002457 0.444500 0.370300 0.331900 0.000000 0.000000 0.000000 0.000000 0.000000 1.149157
-4.895057 0.002548 0.291100 0.217800 0.206300 0.000000 0.000000 0.000000 0.000000 0.000000 0.717748
-4.784057 0.002074 0.238800 0.150500 0.190500 0.000000 0.000000 0.000000 0.000000 0.000000 0.581874
-4.673057 0.002570 0.195200 0.135400 0.188000 0.000000 0.000000 0.000000 0.000000 0.000000 0.521170
-4.562057 0.001467 0.170400 0.138100 0.157900 0.000000 0.000000 0.000000 0.000000 0.000000 0.467867
-4.451057 0.001303 0.186300 0.132500 0.137700 0.000000 0.000000 0.000000 0.000000 0.000000 0.457803
-4.340057 0.001148 0.190700 0.117600 0.119500 0.000000 0.000000 0.000000 0.000000 0.000000 0.428948
-4.229057 0.001075 0.193900 0.122800 0.115200 0.000000 0.000000 0.000000 0.000000 0.000000 0.432975
-4.118057 0.000886 0.163600 0.120200 0.094600 0.000000 0.000000 0.000000 0.000000 0.000000 0.379286
-4.007057 0.000699 0.170100 0.139800 0.073760 0.000000 0.000000 0.000000 0.000000 0.000000 0.384359
-3.896057 0.000547 0.074990 0.085560 0.023870 0.000000 0.000000 0.000000 0.000000 0.000000 0.184967
-3.786057 0.000448 0.052900 0.064230 0.018950 0.000000 0.000000 0.000000 0.000000 0.000000 0.136528
-3.675057 0.000339 0.040140 0.049870 0.014900 0.000000 0.000000 0.000000 0.000000 0.000000 0.105249
-3.564057 0.000233 0.031210 0.039560 0.012020 0.000000 0.000000 0.000000 0.000000 0.000000 0.083023
-3.453057 0.000163 0.023620 0.030230 0.009438 0.000000 0.000000 0.000000 0.000000 0.000000 0.063451
-3.342057 0.000115 0.019070 0.023640 0.007625 0.000000 0.000000 0.000000 0.000000 0.000000 0.050450
-3.231057 0.000079 0.014090 0.018040 0.006490 0.000000 0.000000 0.000000 0.000000 0.000000 0.038699
-3.120057 0.000053 0.011360 0.014380 0.005814 0.000000 0.000000 0.000000 0.000000 0.000000 0.031607
-3.009057 0.000032 0.007009 0.007621 0.004035 0.000000 0.000000 0.000000 0.000000 0.000000 0.018697
-2.898057 0.000023 0.004371 0.003906 0.002937 0.000000 0.000000 0.000000 0.000000 0.000000 0.011237
-2.787057 0.000029 0.004004 0.001581 0.003019 0.000000 0.000000 0.000000 0.000000 0.000000 0.008633
-2.676057 0.000053 0.005330 0.000826 0.003575 0.000000 0.000000 0.000000 0.000000 0.000000 0.009784
-2.565057 0.000119 0.008963 0.001944 0.005475 0.000000 0.000000 0.000000 0.000000 0.000000 0.016501
-2.454057 0.000264 0.013820 0.003811 0.007429 0.000000 0.000000 0.000000 0.000000 0.000000 0.025324
-2.343057 0.000548 0.019820 0.006607 0.009621 0.000000 0.000000 0.000000 0.000000 0.000000 0.036596
-2.232057 0.001299 0.028100 0.013220 0.015500 0.000000 0.000000 0.000000 0.000000 0.000000 0.058119
-2.122057 0.001478 0.031810 0.011670 0.015540 0.000000 0.000000 0.000000 0.000000 0.000000 0.060498
-2.011057 0.000793 0.026550 0.011300 0.012160 0.000000 0.000000 0.000000 0.000000 0.000000 0.050803
-1.900057 0.001361 0.034490 0.018250 0.019400 0.000000 0.000000 0.000000 0.000000 0.000000 0.073501
-1.789057 0.002012 0.031140 0.026530 0.017970 0.000000 0.000000 0.000000 0.000000 0.000000 0.077652
-1.678057 0.003860 0.054530 0.054480 0.035180 0.000000 0.000000 0.000000 0.000000 0.000000 0.148050
-1.567057 0.003790 0.023700 0.051280 0.035220 0.000000 0.000000 0.000000 0.000000 0.000000 0.113990
-1.456057 0.002541 0.029910 0.036590 0.041830 0.000000 0.000000 0.000000 0.000000 0.000000 0.110871
-1.345057 0.000361 0.004669 0.004211 0.002342 0.000000 0.000000 0.000000 0.000000 0.000000 0.011583
-1.234057 0.003991 0.013360 0.014240 0.009027 0.000000 0.000000 0.000000 0.000000 0.000000 0.040618
-1.123057 0.013320 0.037980 0.037520 0.036840 0.000000 0.000000 0.000000 0.000000 0.000000 0.125660
-1.012057 0.016230 0.047160 0.043270 0.051030 0.000000 0.000000 0.000000 0.000000 0.000000 0.157690
-0.901057 0.007677 0.048010 0.047520 0.049880 0.000000 0.000000 0.000000 0.000000 0.000000 0.153087
-0.790057 0.016910 0.050330 0.047390 0.045820 0.000000 0.000000 0.000000 0.000000 0.000000 0.160450
-0.679057 0.019870 0.060240 0.070480 0.059150 0.000000 0.000000 0.000000 0.000000 0.000000 0.209740
-0.568057 0.037670 0.087660 0.100400 0.080590 0.000000 0.000000 0.000000 0.000000 0.000000 0.306320
-0.458057 0.014460 0.113200 0.092120 0.076370 0.000000 0.000000 0.000000 0.000000 0.000000 0.296150
-0.347057 0.010480 0.101800 0.093760 0.114600 0.000000 0.000000 0.000000 0.000000 0.000000 0.320640
-0.236057 0.010200 0.103500 0.110200 0.082780 0.000000 0.000000 0.000000 0.000000 0.000000 0.306680
